Sample Name, Sample-2
Time, March 20 12:26:29 2013
Operator, Kolloid
Lamp, 0
Slit,0.0
Scan From, 1100.0nm
Scan To, 400.0nm
Scan Step, 1.0nm
Sample Filter, 10
memo, 
WL(nm), Abs, T%
400.0, -0.0033, 100.76
401.0, -0.0033, 100.77
402.0, -0.0036, 100.83
403.0, -0.0034, 100.78
404.0, -0.0034, 100.78
405.0, -0.0036, 100.84
406.0, -0.0034, 100.79
407.0, -0.0037, 100.85
408.0, -0.0033, 100.77
409.0, -0.0033, 100.76
410.0, -0.0036, 100.82
411.0, -0.0035, 100.80
412.0, -0.0036, 100.84
413.0, -0.0036, 100.84
414.0, -0.0036, 100.82
415.0, -0.0035, 100.80
416.0, -0.0034, 100.79
417.0, -0.0034, 100.78
418.0, -0.0038, 100.87
419.0, -0.0039, 100.90
420.0, -0.0033, 100.76
421.0, -0.0036, 100.82
422.0, -0.0035, 100.80
423.0, -0.0035, 100.81
424.0, -0.0039, 100.91
425.0, -0.0037, 100.87
426.0, -0.0038, 100.88
427.0, -0.0034, 100.79
428.0, -0.0035, 100.81
429.0, -0.0033, 100.75
430.0, -0.0036, 100.84
431.0, -0.0036, 100.82
432.0, -0.0033, 100.77
433.0, -0.0036, 100.83
434.0, -0.0035, 100.81
435.0, -0.0036, 100.82
436.0, -0.0036, 100.83
437.0, -0.0033, 100.77
438.0, -0.0036, 100.84
439.0, -0.0034, 100.78
440.0, -0.0032, 100.74
441.0, -0.0034, 100.78
442.0, -0.0037, 100.85
443.0, -0.0034, 100.78
444.0, -0.0034, 100.79
445.0, -0.0033, 100.77
446.0, -0.0035, 100.81
447.0, -0.0035, 100.82
448.0, -0.0036, 100.83
449.0, -0.0036, 100.84
450.0, -0.0032, 100.73
451.0, -0.0036, 100.84
452.0, -0.0035, 100.82
453.0, -0.0038, 100.87
454.0, -0.0032, 100.74
455.0, -0.0032, 100.74
456.0, -0.0033, 100.75
457.0, -0.0034, 100.78
458.0, -0.0033, 100.75
459.0, -0.0033, 100.76
460.0, -0.0031, 100.71
461.0, -0.0033, 100.77
462.0, -0.0033, 100.75
463.0, -0.0035, 100.81
464.0, -0.0035, 100.80
465.0, -0.0029, 100.67
466.0, -0.0034, 100.78
467.0, -0.0034, 100.78
468.0, -0.0042, 100.97
469.0, -0.0039, 100.90
470.0, -0.0030, 100.68
471.0, -0.0024, 100.56
472.0, -0.0032, 100.73
473.0, -0.0032, 100.75
474.0, -0.0033, 100.75
475.0, -0.0034, 100.78
476.0, -0.0035, 100.81
477.0, -0.0030, 100.70
478.0, -0.0033, 100.77
479.0, -0.0036, 100.84
480.0, -0.0034, 100.78
481.0, -0.0033, 100.77
482.0, -0.0032, 100.74
483.0, -0.0031, 100.72
484.0, -0.0030, 100.70
485.0, -0.0030, 100.70
486.0, -0.0031, 100.72
487.0, -0.0037, 100.85
488.0, -0.0033, 100.76
489.0, -0.0034, 100.79
490.0, -0.0032, 100.75
491.0, -0.0034, 100.78
492.0, -0.0032, 100.75
493.0, -0.0032, 100.74
494.0, -0.0030, 100.69
495.0, -0.0035, 100.81
496.0, -0.0033, 100.77
497.0, -0.0032, 100.74
498.0, -0.0030, 100.70
499.0, -0.0034, 100.79
500.0, -0.0029, 100.67
501.0, -0.0033, 100.77
502.0, -0.0031, 100.71
503.0, -0.0035, 100.82
504.0, -0.0029, 100.66
505.0, -0.0032, 100.74
506.0, -0.0034, 100.78
507.0, -0.0030, 100.70
508.0, -0.0031, 100.72
509.0, -0.0033, 100.77
510.0, -0.0029, 100.68
511.0, -0.0032, 100.74
512.0, -0.0030, 100.70
513.0, -0.0032, 100.73
514.0, -0.0030, 100.70
515.0, -0.0031, 100.71
516.0, -0.0029, 100.67
517.0, -0.0033, 100.77
518.0, -0.0031, 100.71
519.0, -0.0034, 100.78
520.0, -0.0031, 100.71
521.0, -0.0028, 100.65
522.0, -0.0030, 100.69
523.0, -0.0030, 100.69
524.0, -0.0032, 100.73
525.0, -0.0031, 100.71
526.0, -0.0027, 100.62
527.0, -0.0033, 100.75
528.0, -0.0034, 100.80
529.0, -0.0034, 100.78
530.0, -0.0031, 100.71
531.0, -0.0028, 100.65
532.0, -0.0030, 100.69
533.0, -0.0031, 100.71
534.0, -0.0034, 100.79
535.0, -0.0030, 100.70
536.0, -0.0029, 100.68
537.0, -0.0032, 100.73
538.0, -0.0029, 100.68
539.0, -0.0031, 100.71
540.0, -0.0029, 100.67
541.0, -0.0031, 100.71
542.0, -0.0027, 100.62
543.0, -0.0031, 100.71
544.0, -0.0027, 100.63
545.0, -0.0032, 100.75
546.0, -0.0031, 100.72
547.0, -0.0029, 100.67
548.0, -0.0032, 100.74
549.0, -0.0031, 100.71
550.0, -0.0031, 100.73
551.0, -0.0029, 100.67
552.0, -0.0030, 100.69
553.0, -0.0028, 100.66
554.0, -0.0027, 100.63
555.0, -0.0029, 100.67
556.0, -0.0028, 100.65
557.0, -0.0034, 100.78
558.0, -0.0033, 100.76
559.0, -0.0031, 100.73
560.0, -0.0029, 100.67
561.0, -0.0030, 100.70
562.0, -0.0028, 100.64
563.0, -0.0032, 100.74
564.0, -0.0028, 100.64
565.0, -0.0031, 100.71
566.0, -0.0031, 100.71
567.0, -0.0026, 100.60
568.0, -0.0029, 100.67
569.0, -0.0033, 100.76
570.0, -0.0031, 100.72
571.0, -0.0027, 100.63
572.0, -0.0030, 100.68
573.0, -0.0032, 100.73
574.0, -0.0031, 100.72
575.0, -0.0028, 100.65
576.0, -0.0027, 100.62
577.0, -0.0031, 100.71
578.0, -0.0029, 100.67
579.0, -0.0029, 100.67
580.0, -0.0032, 100.74
581.0, -0.0032, 100.75
582.0, -0.0026, 100.61
583.0, -0.0026, 100.61
584.0, -0.0026, 100.60
585.0, -0.0025, 100.59
586.0, -0.0039, 100.89
587.0, -0.0036, 100.84
588.0, -0.0034, 100.78
589.0, -0.0035, 100.82
590.0, -0.0031, 100.71
591.0, -0.0032, 100.73
592.0, -0.0031, 100.72
593.0, -0.0033, 100.75
594.0, -0.0032, 100.74
595.0, -0.0033, 100.75
596.0, -0.0031, 100.72
597.0, -0.0035, 100.81
598.0, -0.0031, 100.72
599.0, -0.0039, 100.90
600.0, -0.0034, 100.78
601.0, -0.0033, 100.76
602.0, -0.0033, 100.77
603.0, -0.0035, 100.81
604.0, -0.0028, 100.64
605.0, -0.0030, 100.69
606.0, -0.0032, 100.74
607.0, -0.0036, 100.83
608.0, -0.0039, 100.89
609.0, -0.0034, 100.78
610.0, -0.0028, 100.66
611.0, -0.0031, 100.72
612.0, -0.0030, 100.68
613.0, -0.0031, 100.71
614.0, -0.0038, 100.87
615.0, -0.0034, 100.78
616.0, -0.0030, 100.70
617.0, -0.0029, 100.67
618.0, -0.0032, 100.73
619.0, -0.0035, 100.81
620.0, -0.0032, 100.74
621.0, -0.0034, 100.79
622.0, -0.0037, 100.85
623.0, -0.0035, 100.80
624.0, -0.0031, 100.72
625.0, -0.0034, 100.79
626.0, -0.0030, 100.70
627.0, -0.0036, 100.83
628.0, -0.0029, 100.67
629.0, -0.0036, 100.84
630.0, -0.0035, 100.80
631.0, -0.0032, 100.74
632.0, -0.0037, 100.85
633.0, -0.0032, 100.74
634.0, -0.0032, 100.75
635.0, -0.0032, 100.74
636.0, -0.0034, 100.79
637.0, -0.0036, 100.84
638.0, -0.0034, 100.78
639.0, -0.0030, 100.69
640.0, -0.0036, 100.82
641.0, -0.0036, 100.84
642.0, -0.0031, 100.72
643.0, -0.0034, 100.79
644.0, -0.0031, 100.72
645.0, -0.0031, 100.71
646.0, -0.0032, 100.74
647.0, -0.0029, 100.67
648.0, -0.0035, 100.80
649.0, -0.0030, 100.70
650.0, -0.0033, 100.77
651.0, -0.0033, 100.77
652.0, -0.0031, 100.72
653.0, -0.0032, 100.75
654.0, -0.0032, 100.74
655.0, -0.0035, 100.81
656.0, -0.0033, 100.77
657.0, -0.0035, 100.81
658.0, -0.0030, 100.69
659.0, -0.0029, 100.68
660.0, -0.0035, 100.81
661.0, -0.0028, 100.65
662.0, -0.0028, 100.65
663.0, -0.0034, 100.78
664.0, -0.0030, 100.69
665.0, -0.0032, 100.73
666.0, -0.0029, 100.67
667.0, -0.0036, 100.84
668.0, -0.0035, 100.82
669.0, -0.0030, 100.69
670.0, -0.0031, 100.71
671.0, -0.0037, 100.86
672.0, -0.0032, 100.74
673.0, -0.0029, 100.67
674.0, -0.0030, 100.69
675.0, -0.0036, 100.84
676.0, -0.0033, 100.77
677.0, -0.0025, 100.59
678.0, -0.0028, 100.65
679.0, -0.0031, 100.71
680.0, -0.0028, 100.66
681.0, -0.0028, 100.64
682.0, -0.0035, 100.81
683.0, -0.0034, 100.79
684.0, -0.0029, 100.68
685.0, -0.0034, 100.78
686.0, -0.0032, 100.75
687.0, -0.0030, 100.70
688.0, -0.0035, 100.81
689.0, -0.0029, 100.68
690.0, -0.0026, 100.60
691.0, -0.0028, 100.64
692.0, -0.0033, 100.77
693.0, -0.0029, 100.68
694.0, -0.0027, 100.62
695.0, -0.0029, 100.67
696.0, -0.0033, 100.75
697.0, -0.0035, 100.80
698.0, -0.0032, 100.73
699.0, -0.0032, 100.73
700.0, -0.0037, 100.85
701.0, -0.0032, 100.74
702.0, -0.0028, 100.65
703.0, -0.0035, 100.81
704.0, -0.0034, 100.78
705.0, -0.0033, 100.75
706.0, -0.0032, 100.74
707.0, -0.0032, 100.74
708.0, -0.0024, 100.54
709.0, -0.0022, 100.52
710.0, -0.0027, 100.63
711.0, -0.0033, 100.77
712.0, -0.0033, 100.75
713.0, -0.0035, 100.80
714.0, -0.0034, 100.78
715.0, -0.0033, 100.76
716.0, -0.0032, 100.74
717.0, -0.0033, 100.76
718.0, -0.0034, 100.77
719.0, -0.0036, 100.83
720.0, -0.0032, 100.74
721.0, -0.0033, 100.77
722.0, -0.0033, 100.76
723.0, -0.0033, 100.77
724.0, -0.0034, 100.80
725.0, -0.0035, 100.80
726.0, -0.0032, 100.73
727.0, -0.0032, 100.74
728.0, -0.0033, 100.76
729.0, -0.0031, 100.73
730.0, -0.0032, 100.73
731.0, -0.0035, 100.80
732.0, -0.0035, 100.81
733.0, -0.0035, 100.81
734.0, -0.0036, 100.83
735.0, -0.0033, 100.77
736.0, -0.0032, 100.74
737.0, -0.0033, 100.77
738.0, -0.0033, 100.76
739.0, -0.0034, 100.80
740.0, -0.0034, 100.78
741.0, -0.0035, 100.82
742.0, -0.0035, 100.82
743.0, -0.0036, 100.82
744.0, -0.0034, 100.80
745.0, -0.0032, 100.75
746.0, -0.0033, 100.77
747.0, -0.0033, 100.76
748.0, -0.0037, 100.85
749.0, -0.0034, 100.79
750.0, -0.0034, 100.79
751.0, -0.0033, 100.76
752.0, -0.0034, 100.79
753.0, -0.0034, 100.80
754.0, -0.0034, 100.80
755.0, -0.0034, 100.79
756.0, -0.0034, 100.79
757.0, -0.0033, 100.75
758.0, -0.0034, 100.78
759.0, -0.0033, 100.76
760.0, -0.0034, 100.78
761.0, -0.0038, 100.87
762.0, -0.0034, 100.78
763.0, -0.0034, 100.79
764.0, -0.0032, 100.74
765.0, -0.0031, 100.71
766.0, -0.0036, 100.83
767.0, -0.0035, 100.81
768.0, -0.0031, 100.71
769.0, -0.0031, 100.73
770.0, -0.0035, 100.80
771.0, -0.0036, 100.82
772.0, -0.0035, 100.80
773.0, -0.0031, 100.72
774.0, -0.0036, 100.84
775.0, -0.0034, 100.79
776.0, -0.0032, 100.75
777.0, -0.0030, 100.70
778.0, -0.0031, 100.72
779.0, -0.0034, 100.79
780.0, -0.0035, 100.81
781.0, -0.0033, 100.77
782.0, -0.0031, 100.71
783.0, -0.0037, 100.85
784.0, -0.0036, 100.84
785.0, -0.0037, 100.85
786.0, -0.0036, 100.84
787.0, -0.0027, 100.63
788.0, -0.0034, 100.80
789.0, -0.0034, 100.78
790.0, -0.0030, 100.70
791.0, -0.0036, 100.84
792.0, -0.0037, 100.86
793.0, -0.0037, 100.85
794.0, -0.0036, 100.82
795.0, -0.0035, 100.82
796.0, -0.0034, 100.80
797.0, -0.0037, 100.84
798.0, -0.0039, 100.89
799.0, -0.0032, 100.73
800.0, -0.0032, 100.74
801.0, -0.0040, 100.93
802.0, -0.0036, 100.83
803.0, -0.0034, 100.79
804.0, -0.0037, 100.84
805.0, -0.0035, 100.80
806.0, -0.0034, 100.78
807.0, -0.0034, 100.78
808.0, -0.0036, 100.83
809.0, -0.0034, 100.78
810.0, -0.0034, 100.78
811.0, -0.0035, 100.80
812.0, -0.0032, 100.75
813.0, -0.0033, 100.76
814.0, -0.0033, 100.77
815.0, -0.0036, 100.83
816.0, -0.0038, 100.88
817.0, -0.0036, 100.82
818.0, -0.0036, 100.83
819.0, -0.0037, 100.86
820.0, -0.0037, 100.85
821.0, -0.0035, 100.81
822.0, -0.0035, 100.82
823.0, -0.0037, 100.87
824.0, -0.0035, 100.80
825.0, -0.0035, 100.80
826.0, -0.0034, 100.78
827.0, -0.0036, 100.82
828.0, -0.0035, 100.81
829.0, -0.0040, 100.92
830.0, -0.0033, 100.77
831.0, -0.0034, 100.79
832.0, -0.0036, 100.82
833.0, -0.0034, 100.79
834.0, -0.0034, 100.80
835.0, -0.0037, 100.85
836.0, -0.0036, 100.84
837.0, -0.0032, 100.74
838.0, -0.0032, 100.75
839.0, -0.0034, 100.79
840.0, -0.0038, 100.87
841.0, -0.0038, 100.87
842.0, -0.0033, 100.77
843.0, -0.0033, 100.76
844.0, -0.0037, 100.85
845.0, -0.0035, 100.81
846.0, -0.0034, 100.80
847.0, -0.0035, 100.81
848.0, -0.0037, 100.86
849.0, -0.0032, 100.75
850.0, -0.0036, 100.82
851.0, -0.0038, 100.88
852.0, -0.0032, 100.75
853.0, -0.0031, 100.72
854.0, -0.0034, 100.78
855.0, -0.0036, 100.83
856.0, -0.0034, 100.79
857.0, -0.0037, 100.85
858.0, -0.0034, 100.79
859.0, -0.0037, 100.84
860.0, -0.0033, 100.76
861.0, -0.0032, 100.74
862.0, -0.0029, 100.67
863.0, -0.0033, 100.76
864.0, -0.0035, 100.80
865.0, -0.0033, 100.76
866.0, -0.0032, 100.74
867.0, -0.0031, 100.71
868.0, -0.0035, 100.81
869.0, -0.0037, 100.85
870.0, -0.0031, 100.71
871.0, -0.0034, 100.79
872.0, -0.0030, 100.70
873.0, -0.0030, 100.70
874.0, -0.0033, 100.75
875.0, -0.0032, 100.74
876.0, -0.0037, 100.85
877.0, -0.0032, 100.73
878.0, -0.0034, 100.78
879.0, -0.0035, 100.82
880.0, -0.0034, 100.79
881.0, -0.0034, 100.79
882.0, -0.0037, 100.85
883.0, -0.0036, 100.83
884.0, -0.0034, 100.79
885.0, -0.0035, 100.82
886.0, -0.0032, 100.74
887.0, -0.0033, 100.76
888.0, -0.0036, 100.84
889.0, -0.0036, 100.84
890.0, -0.0031, 100.72
891.0, -0.0039, 100.90
892.0, -0.0033, 100.77
893.0, -0.0031, 100.73
894.0, -0.0039, 100.91
895.0, -0.0034, 100.78
896.0, -0.0034, 100.78
897.0, -0.0032, 100.74
898.0, -0.0034, 100.79
899.0, -0.0038, 100.88
900.0, -0.0036, 100.84
901.0, -0.0033, 100.76
902.0, -0.0034, 100.78
903.0, -0.0034, 100.78
904.0, -0.0035, 100.82
905.0, -0.0030, 100.70
906.0, -0.0037, 100.87
907.0, -0.0037, 100.87
908.0, -0.0032, 100.73
909.0, -0.0034, 100.79
910.0, -0.0032, 100.74
911.0, -0.0038, 100.89
912.0, -0.0041, 100.94
913.0, -0.0033, 100.76
914.0, -0.0034, 100.79
915.0, -0.0035, 100.82
916.0, -0.0038, 100.89
917.0, -0.0037, 100.85
918.0, -0.0033, 100.75
919.0, -0.0035, 100.81
920.0, -0.0038, 100.88
921.0, -0.0033, 100.77
922.0, -0.0035, 100.80
923.0, -0.0035, 100.80
924.0, -0.0034, 100.78
925.0, -0.0032, 100.73
926.0, -0.0039, 100.90
927.0, -0.0041, 100.94
928.0, -0.0037, 100.84
929.0, -0.0035, 100.80
930.0, -0.0037, 100.86
931.0, -0.0035, 100.82
932.0, -0.0037, 100.85
933.0, -0.0036, 100.83
934.0, -0.0035, 100.81
935.0, -0.0035, 100.80
936.0, -0.0036, 100.82
937.0, -0.0036, 100.84
938.0, -0.0034, 100.78
939.0, -0.0034, 100.79
940.0, -0.0037, 100.84
941.0, -0.0038, 100.88
942.0, -0.0035, 100.80
943.0, -0.0035, 100.82
944.0, -0.0036, 100.83
945.0, -0.0035, 100.81
946.0, -0.0037, 100.85
947.0, -0.0033, 100.77
948.0, -0.0037, 100.85
949.0, -0.0038, 100.88
950.0, -0.0033, 100.77
951.0, -0.0037, 100.85
952.0, -0.0041, 100.94
953.0, -0.0038, 100.89
954.0, -0.0039, 100.90
955.0, -0.0036, 100.83
956.0, -0.0036, 100.84
957.0, -0.0036, 100.84
958.0, -0.0037, 100.86
959.0, -0.0035, 100.82
960.0, -0.0041, 100.95
961.0, -0.0039, 100.90
962.0, -0.0040, 100.93
963.0, -0.0041, 100.94
964.0, -0.0041, 100.94
965.0, -0.0035, 100.81
966.0, -0.0041, 100.95
967.0, -0.0039, 100.91
968.0, -0.0041, 100.95
969.0, -0.0038, 100.88
970.0, -0.0036, 100.82
971.0, -0.0041, 100.94
972.0, -0.0038, 100.87
973.0, -0.0042, 100.98
974.0, -0.0035, 100.81
975.0, -0.0036, 100.84
976.0, -0.0037, 100.86
977.0, -0.0041, 100.95
978.0, -0.0037, 100.85
979.0, -0.0035, 100.82
980.0, -0.0041, 100.95
981.0, -0.0039, 100.89
982.0, -0.0037, 100.86
983.0, -0.0041, 100.95
984.0, -0.0040, 100.94
985.0, -0.0035, 100.81
986.0, -0.0038, 100.88
987.0, -0.0041, 100.96
988.0, -0.0033, 100.75
989.0, -0.0040, 100.93
990.0, -0.0040, 100.92
991.0, -0.0035, 100.80
992.0, -0.0044, 101.01
993.0, -0.0038, 100.87
994.0, -0.0038, 100.88
995.0, -0.0042, 100.96
996.0, -0.0036, 100.83
997.0, -0.0039, 100.91
998.0, -0.0040, 100.91
999.0, -0.0038, 100.88
1000.0, -0.0038, 100.88
1001.0, -0.0035, 100.81
1002.0, -0.0039, 100.89
1003.0, -0.0037, 100.85
1004.0, -0.0037, 100.87
1005.0, -0.0037, 100.85
1006.0, -0.0035, 100.81
1007.0, -0.0037, 100.85
1008.0, -0.0039, 100.89
1009.0, -0.0038, 100.88
1010.0, -0.0035, 100.82
1011.0, -0.0037, 100.85
1012.0, -0.0038, 100.87
1013.0, -0.0040, 100.93
1014.0, -0.0033, 100.77
1015.0, -0.0038, 100.89
1016.0, -0.0039, 100.90
1017.0, -0.0038, 100.89
1018.0, -0.0042, 100.98
1019.0, -0.0035, 100.81
1020.0, -0.0040, 100.93
1021.0, -0.0032, 100.74
1022.0, -0.0037, 100.85
1023.0, -0.0035, 100.81
1024.0, -0.0039, 100.90
1025.0, -0.0041, 100.94
1026.0, -0.0037, 100.86
1027.0, -0.0038, 100.88
1028.0, -0.0031, 100.73
1029.0, -0.0040, 100.92
1030.0, -0.0041, 100.95
1031.0, -0.0039, 100.90
1032.0, -0.0034, 100.78
1033.0, -0.0040, 100.93
1034.0, -0.0039, 100.89
1035.0, -0.0043, 100.99
1036.0, -0.0037, 100.85
1037.0, -0.0040, 100.94
1038.0, -0.0041, 100.96
1039.0, -0.0035, 100.80
1040.0, -0.0043, 101.00
1041.0, -0.0040, 100.92
1042.0, -0.0043, 101.00
1043.0, -0.0037, 100.86
1044.0, -0.0044, 101.01
1045.0, -0.0042, 100.98
1046.0, -0.0040, 100.94
1047.0, -0.0038, 100.89
1048.0, -0.0043, 101.00
1049.0, -0.0045, 101.04
1050.0, -0.0036, 100.83
1051.0, -0.0042, 100.98
1052.0, -0.0043, 101.00
1053.0, -0.0043, 100.99
1054.0, -0.0045, 101.05
1055.0, -0.0035, 100.80
1056.0, -0.0027, 100.62
1057.0, -0.0025, 100.58
1058.0, -0.0042, 100.96
1059.0, -0.0038, 100.89
1060.0, -0.0035, 100.81
1061.0, -0.0040, 100.93
1062.0, -0.0040, 100.92
1063.0, -0.0038, 100.89
1064.0, -0.0041, 100.94
1065.0, -0.0039, 100.90
1066.0, -0.0040, 100.92
1067.0, -0.0042, 100.97
1068.0, -0.0036, 100.83
1069.0, -0.0044, 101.01
1070.0, -0.0041, 100.95
1071.0, -0.0032, 100.74
1072.0, -0.0041, 100.95
1073.0, -0.0040, 100.92
1074.0, -0.0041, 100.96
1075.0, -0.0051, 101.17
1076.0, -0.0047, 101.09
1077.0, -0.0042, 100.96
1078.0, -0.0039, 100.91
1079.0, -0.0048, 101.11
1080.0, -0.0039, 100.91
1081.0, -0.0046, 101.07
1082.0, -0.0050, 101.16
1083.0, -0.0047, 101.09
1084.0, -0.0046, 101.06
1085.0, -0.0037, 100.86
1086.0, -0.0037, 100.86
1087.0, -0.0047, 101.08
1088.0, -0.0041, 100.95
1089.0, -0.0048, 101.10
1090.0, -0.0046, 101.07
1091.0, -0.0054, 101.26
1092.0, -0.0046, 101.07
1093.0, -0.0048, 101.12
1094.0, -0.0056, 101.30
1095.0, -0.0047, 101.08
1096.0, -0.0044, 101.02
1097.0, -0.0057, 101.32
1098.0, -0.0050, 101.16
1099.0, -0.0048, 101.10
1100.0, -0.0043, 100.99
