Sample Name, Sample-8
Time, March 20 12:47:15 2013
Operator, Kolloid
Lamp, 0
Slit,0.0
Scan From, 1100.0nm
Scan To, 400.0nm
Scan Step, 1.0nm
Sample Filter, 10
memo, 
WL(nm), Abs, T%
400.0, -0.0129, 103.01
401.0, -0.0130, 103.05
402.0, -0.0132, 103.10
403.0, -0.0139, 103.25
404.0, -0.0138, 103.22
405.0, -0.0137, 103.20
406.0, -0.0138, 103.23
407.0, -0.0147, 103.44
408.0, -0.0149, 103.48
409.0, -0.0149, 103.50
410.0, -0.0151, 103.55
411.0, -0.0156, 103.67
412.0, -0.0158, 103.70
413.0, -0.0160, 103.76
414.0, -0.0164, 103.84
415.0, -0.0171, 104.03
416.0, -0.0169, 103.97
417.0, -0.0174, 104.09
418.0, -0.0175, 104.12
419.0, -0.0184, 104.33
420.0, -0.0184, 104.33
421.0, -0.0188, 104.41
422.0, -0.0188, 104.41
423.0, -0.0192, 104.53
424.0, -0.0195, 104.60
425.0, -0.0199, 104.69
426.0, -0.0203, 104.78
427.0, -0.0204, 104.82
428.0, -0.0206, 104.87
429.0, -0.0208, 104.91
430.0, -0.0211, 104.98
431.0, -0.0213, 105.03
432.0, -0.0218, 105.14
433.0, -0.0219, 105.17
434.0, -0.0221, 105.23
435.0, -0.0225, 105.31
436.0, -0.0227, 105.36
437.0, -0.0228, 105.40
438.0, -0.0232, 105.50
439.0, -0.0231, 105.47
440.0, -0.0233, 105.52
441.0, -0.0236, 105.59
442.0, -0.0240, 105.69
443.0, -0.0240, 105.69
444.0, -0.0240, 105.68
445.0, -0.0238, 105.62
446.0, -0.0248, 105.88
447.0, -0.0246, 105.82
448.0, -0.0246, 105.82
449.0, -0.0252, 105.96
450.0, -0.0247, 105.84
451.0, -0.0260, 106.16
452.0, -0.0255, 106.05
453.0, -0.0259, 106.14
454.0, -0.0262, 106.21
455.0, -0.0260, 106.17
456.0, -0.0260, 106.17
457.0, -0.0268, 106.37
458.0, -0.0262, 106.22
459.0, -0.0267, 106.33
460.0, -0.0267, 106.35
461.0, -0.0266, 106.32
462.0, -0.0273, 106.49
463.0, -0.0272, 106.46
464.0, -0.0276, 106.57
465.0, -0.0269, 106.39
466.0, -0.0276, 106.57
467.0, -0.0275, 106.54
468.0, -0.0289, 106.87
469.0, -0.0285, 106.79
470.0, -0.0272, 106.47
471.0, -0.0280, 106.66
472.0, -0.0280, 106.65
473.0, -0.0286, 106.81
474.0, -0.0291, 106.92
475.0, -0.0286, 106.81
476.0, -0.0286, 106.80
477.0, -0.0284, 106.75
478.0, -0.0287, 106.84
479.0, -0.0298, 107.09
480.0, -0.0292, 106.96
481.0, -0.0293, 106.98
482.0, -0.0303, 107.22
483.0, -0.0298, 107.11
484.0, -0.0293, 106.99
485.0, -0.0301, 107.17
486.0, -0.0301, 107.19
487.0, -0.0305, 107.27
488.0, -0.0303, 107.22
489.0, -0.0308, 107.35
490.0, -0.0308, 107.34
491.0, -0.0311, 107.43
492.0, -0.0309, 107.39
493.0, -0.0311, 107.42
494.0, -0.0313, 107.46
495.0, -0.0320, 107.64
496.0, -0.0319, 107.63
497.0, -0.0320, 107.65
498.0, -0.0323, 107.71
499.0, -0.0326, 107.79
500.0, -0.0320, 107.65
501.0, -0.0324, 107.75
502.0, -0.0328, 107.85
503.0, -0.0332, 107.95
504.0, -0.0332, 107.94
505.0, -0.0334, 108.00
506.0, -0.0339, 108.11
507.0, -0.0338, 108.09
508.0, -0.0343, 108.22
509.0, -0.0344, 108.25
510.0, -0.0346, 108.28
511.0, -0.0349, 108.37
512.0, -0.0350, 108.40
513.0, -0.0349, 108.36
514.0, -0.0352, 108.45
515.0, -0.0353, 108.46
516.0, -0.0352, 108.45
517.0, -0.0361, 108.66
518.0, -0.0361, 108.68
519.0, -0.0368, 108.84
520.0, -0.0368, 108.85
521.0, -0.0368, 108.84
522.0, -0.0369, 108.88
523.0, -0.0373, 108.97
524.0, -0.0373, 108.97
525.0, -0.0377, 109.08
526.0, -0.0379, 109.11
527.0, -0.0381, 109.18
528.0, -0.0386, 109.29
529.0, -0.0391, 109.41
530.0, -0.0387, 109.31
531.0, -0.0390, 109.40
532.0, -0.0390, 109.40
533.0, -0.0395, 109.52
534.0, -0.0401, 109.67
535.0, -0.0401, 109.67
536.0, -0.0399, 109.62
537.0, -0.0405, 109.77
538.0, -0.0406, 109.80
539.0, -0.0409, 109.88
540.0, -0.0409, 109.86
541.0, -0.0413, 109.98
542.0, -0.0411, 109.92
543.0, -0.0416, 110.06
544.0, -0.0417, 110.08
545.0, -0.0420, 110.17
546.0, -0.0423, 110.23
547.0, -0.0424, 110.26
548.0, -0.0425, 110.28
549.0, -0.0429, 110.39
550.0, -0.0431, 110.44
551.0, -0.0434, 110.52
552.0, -0.0430, 110.41
553.0, -0.0435, 110.54
554.0, -0.0436, 110.56
555.0, -0.0438, 110.61
556.0, -0.0442, 110.71
557.0, -0.0447, 110.85
558.0, -0.0446, 110.82
559.0, -0.0446, 110.83
560.0, -0.0448, 110.86
561.0, -0.0450, 110.92
562.0, -0.0452, 110.96
563.0, -0.0457, 111.09
564.0, -0.0455, 111.05
565.0, -0.0457, 111.10
566.0, -0.0460, 111.18
567.0, -0.0459, 111.14
568.0, -0.0465, 111.29
569.0, -0.0465, 111.31
570.0, -0.0469, 111.41
571.0, -0.0471, 111.46
572.0, -0.0472, 111.48
573.0, -0.0474, 111.53
574.0, -0.0472, 111.49
575.0, -0.0476, 111.58
576.0, -0.0476, 111.59
577.0, -0.0479, 111.66
578.0, -0.0482, 111.73
579.0, -0.0482, 111.75
580.0, -0.0483, 111.77
581.0, -0.0486, 111.84
582.0, -0.0487, 111.86
583.0, -0.0485, 111.82
584.0, -0.0486, 111.85
585.0, -0.0489, 111.93
586.0, -0.0491, 111.96
587.0, -0.0499, 112.16
588.0, -0.0490, 111.93
589.0, -0.0496, 112.10
590.0, -0.0494, 112.05
591.0, -0.0496, 112.09
592.0, -0.0500, 112.20
593.0, -0.0497, 112.12
594.0, -0.0496, 112.11
595.0, -0.0503, 112.28
596.0, -0.0504, 112.30
597.0, -0.0511, 112.49
598.0, -0.0505, 112.33
599.0, -0.0513, 112.53
600.0, -0.0511, 112.48
601.0, -0.0515, 112.60
602.0, -0.0512, 112.51
603.0, -0.0517, 112.65
604.0, -0.0512, 112.52
605.0, -0.0516, 112.62
606.0, -0.0516, 112.62
607.0, -0.0520, 112.71
608.0, -0.0526, 112.87
609.0, -0.0523, 112.81
610.0, -0.0522, 112.78
611.0, -0.0523, 112.79
612.0, -0.0525, 112.84
613.0, -0.0528, 112.92
614.0, -0.0528, 112.92
615.0, -0.0528, 112.92
616.0, -0.0528, 112.92
617.0, -0.0531, 113.01
618.0, -0.0532, 113.03
619.0, -0.0531, 113.01
620.0, -0.0533, 113.07
621.0, -0.0532, 113.03
622.0, -0.0536, 113.15
623.0, -0.0539, 113.22
624.0, -0.0538, 113.18
625.0, -0.0536, 113.15
626.0, -0.0539, 113.21
627.0, -0.0549, 113.48
628.0, -0.0539, 113.21
629.0, -0.0545, 113.38
630.0, -0.0549, 113.48
631.0, -0.0545, 113.36
632.0, -0.0552, 113.57
633.0, -0.0548, 113.46
634.0, -0.0547, 113.42
635.0, -0.0550, 113.51
636.0, -0.0556, 113.66
637.0, -0.0558, 113.71
638.0, -0.0551, 113.52
639.0, -0.0555, 113.63
640.0, -0.0559, 113.74
641.0, -0.0560, 113.75
642.0, -0.0558, 113.71
643.0, -0.0560, 113.76
644.0, -0.0559, 113.74
645.0, -0.0560, 113.77
646.0, -0.0560, 113.75
647.0, -0.0560, 113.77
648.0, -0.0565, 113.90
649.0, -0.0559, 113.73
650.0, -0.0562, 113.81
651.0, -0.0568, 113.96
652.0, -0.0566, 113.91
653.0, -0.0568, 113.96
654.0, -0.0568, 113.98
655.0, -0.0569, 113.99
656.0, -0.0570, 114.02
657.0, -0.0574, 114.13
658.0, -0.0572, 114.07
659.0, -0.0575, 114.16
660.0, -0.0571, 114.05
661.0, -0.0569, 114.00
662.0, -0.0572, 114.08
663.0, -0.0580, 114.28
664.0, -0.0573, 114.09
665.0, -0.0576, 114.18
666.0, -0.0576, 114.18
667.0, -0.0580, 114.28
668.0, -0.0582, 114.33
669.0, -0.0576, 114.18
670.0, -0.0581, 114.31
671.0, -0.0584, 114.39
672.0, -0.0581, 114.33
673.0, -0.0586, 114.44
674.0, -0.0583, 114.36
675.0, -0.0589, 114.53
676.0, -0.0587, 114.47
677.0, -0.0582, 114.35
678.0, -0.0589, 114.54
679.0, -0.0591, 114.57
680.0, -0.0591, 114.57
681.0, -0.0591, 114.58
682.0, -0.0595, 114.69
683.0, -0.0592, 114.59
684.0, -0.0596, 114.70
685.0, -0.0593, 114.64
686.0, -0.0589, 114.52
687.0, -0.0591, 114.57
688.0, -0.0602, 114.87
689.0, -0.0592, 114.59
690.0, -0.0592, 114.60
691.0, -0.0595, 114.68
692.0, -0.0598, 114.77
693.0, -0.0598, 114.77
694.0, -0.0598, 114.77
695.0, -0.0597, 114.75
696.0, -0.0602, 114.87
697.0, -0.0602, 114.88
698.0, -0.0603, 114.89
699.0, -0.0609, 115.06
700.0, -0.0607, 115.00
701.0, -0.0606, 114.97
702.0, -0.0609, 115.06
703.0, -0.0604, 114.91
704.0, -0.0609, 115.05
705.0, -0.0608, 115.04
706.0, -0.0610, 115.09
707.0, -0.0612, 115.12
708.0, -0.0603, 114.89
709.0, -0.0604, 114.92
710.0, -0.0611, 115.10
711.0, -0.0613, 115.15
712.0, -0.0614, 115.18
713.0, -0.0619, 115.31
714.0, -0.0620, 115.35
715.0, -0.0619, 115.33
716.0, -0.0620, 115.36
717.0, -0.0624, 115.46
718.0, -0.0624, 115.46
719.0, -0.0625, 115.48
720.0, -0.0623, 115.43
721.0, -0.0625, 115.48
722.0, -0.0627, 115.53
723.0, -0.0629, 115.57
724.0, -0.0629, 115.58
725.0, -0.0626, 115.50
726.0, -0.0629, 115.57
727.0, -0.0630, 115.61
728.0, -0.0629, 115.59
729.0, -0.0631, 115.64
730.0, -0.0631, 115.62
731.0, -0.0635, 115.73
732.0, -0.0633, 115.68
733.0, -0.0635, 115.76
734.0, -0.0635, 115.74
735.0, -0.0634, 115.73
736.0, -0.0638, 115.83
737.0, -0.0639, 115.86
738.0, -0.0639, 115.84
739.0, -0.0639, 115.85
740.0, -0.0637, 115.80
741.0, -0.0640, 115.87
742.0, -0.0642, 115.94
743.0, -0.0641, 115.91
744.0, -0.0641, 115.91
745.0, -0.0643, 115.95
746.0, -0.0643, 115.96
747.0, -0.0644, 115.98
748.0, -0.0647, 116.07
749.0, -0.0646, 116.05
750.0, -0.0643, 115.97
751.0, -0.0642, 115.93
752.0, -0.0645, 116.01
753.0, -0.0647, 116.06
754.0, -0.0647, 116.07
755.0, -0.0653, 116.21
756.0, -0.0646, 116.05
757.0, -0.0649, 116.12
758.0, -0.0651, 116.16
759.0, -0.0647, 116.06
760.0, -0.0650, 116.15
761.0, -0.0648, 116.10
762.0, -0.0649, 116.12
763.0, -0.0649, 116.11
764.0, -0.0647, 116.05
765.0, -0.0649, 116.11
766.0, -0.0652, 116.20
767.0, -0.0650, 116.15
768.0, -0.0648, 116.09
769.0, -0.0649, 116.12
770.0, -0.0652, 116.21
771.0, -0.0650, 116.16
772.0, -0.0654, 116.25
773.0, -0.0650, 116.15
774.0, -0.0648, 116.10
775.0, -0.0651, 116.18
776.0, -0.0656, 116.31
777.0, -0.0652, 116.19
778.0, -0.0650, 116.15
779.0, -0.0656, 116.31
780.0, -0.0653, 116.23
781.0, -0.0649, 116.12
782.0, -0.0649, 116.12
783.0, -0.0656, 116.29
784.0, -0.0651, 116.17
785.0, -0.0653, 116.23
786.0, -0.0646, 116.04
787.0, -0.0650, 116.15
788.0, -0.0651, 116.17
789.0, -0.0650, 116.14
790.0, -0.0647, 116.08
791.0, -0.0649, 116.12
792.0, -0.0648, 116.09
793.0, -0.0648, 116.08
794.0, -0.0648, 116.09
795.0, -0.0646, 116.03
796.0, -0.0646, 116.04
797.0, -0.0649, 116.12
798.0, -0.0649, 116.12
799.0, -0.0644, 115.99
800.0, -0.0640, 115.88
801.0, -0.0648, 116.09
802.0, -0.0643, 115.97
803.0, -0.0641, 115.92
804.0, -0.0644, 115.98
805.0, -0.0642, 115.92
806.0, -0.0641, 115.90
807.0, -0.0642, 115.93
808.0, -0.0643, 115.95
809.0, -0.0638, 115.84
810.0, -0.0638, 115.84
811.0, -0.0640, 115.87
812.0, -0.0639, 115.84
813.0, -0.0637, 115.80
814.0, -0.0635, 115.76
815.0, -0.0639, 115.84
816.0, -0.0636, 115.76
817.0, -0.0632, 115.67
818.0, -0.0630, 115.61
819.0, -0.0631, 115.63
820.0, -0.0632, 115.67
821.0, -0.0627, 115.54
822.0, -0.0629, 115.59
823.0, -0.0626, 115.52
824.0, -0.0626, 115.52
825.0, -0.0623, 115.43
826.0, -0.0622, 115.40
827.0, -0.0623, 115.42
828.0, -0.0620, 115.34
829.0, -0.0621, 115.37
830.0, -0.0618, 115.30
831.0, -0.0620, 115.35
832.0, -0.0617, 115.27
833.0, -0.0613, 115.15
834.0, -0.0612, 115.14
835.0, -0.0612, 115.13
836.0, -0.0609, 115.06
837.0, -0.0608, 115.04
838.0, -0.0607, 115.01
839.0, -0.0605, 114.94
840.0, -0.0605, 114.95
841.0, -0.0605, 114.94
842.0, -0.0601, 114.84
843.0, -0.0603, 114.90
844.0, -0.0602, 114.87
845.0, -0.0597, 114.73
846.0, -0.0596, 114.72
847.0, -0.0597, 114.74
848.0, -0.0596, 114.71
849.0, -0.0591, 114.57
850.0, -0.0590, 114.55
851.0, -0.0596, 114.70
852.0, -0.0592, 114.60
853.0, -0.0587, 114.47
854.0, -0.0588, 114.49
855.0, -0.0588, 114.49
856.0, -0.0585, 114.41
857.0, -0.0586, 114.43
858.0, -0.0585, 114.41
859.0, -0.0581, 114.32
860.0, -0.0580, 114.30
861.0, -0.0577, 114.21
862.0, -0.0576, 114.17
863.0, -0.0577, 114.20
864.0, -0.0576, 114.18
865.0, -0.0573, 114.09
866.0, -0.0572, 114.07
867.0, -0.0567, 113.95
868.0, -0.0574, 114.12
869.0, -0.0575, 114.17
870.0, -0.0567, 113.95
871.0, -0.0568, 113.98
872.0, -0.0567, 113.96
873.0, -0.0570, 114.02
874.0, -0.0560, 113.76
875.0, -0.0559, 113.74
876.0, -0.0564, 113.87
877.0, -0.0561, 113.79
878.0, -0.0559, 113.74
879.0, -0.0559, 113.74
880.0, -0.0561, 113.79
881.0, -0.0561, 113.79
882.0, -0.0557, 113.69
883.0, -0.0554, 113.60
884.0, -0.0554, 113.61
885.0, -0.0554, 113.61
886.0, -0.0552, 113.55
887.0, -0.0550, 113.51
888.0, -0.0552, 113.56
889.0, -0.0551, 113.52
890.0, -0.0548, 113.44
891.0, -0.0551, 113.52
892.0, -0.0545, 113.38
893.0, -0.0543, 113.31
894.0, -0.0548, 113.44
895.0, -0.0546, 113.39
896.0, -0.0545, 113.36
897.0, -0.0541, 113.27
898.0, -0.0542, 113.29
899.0, -0.0544, 113.34
900.0, -0.0542, 113.29
901.0, -0.0537, 113.15
902.0, -0.0536, 113.13
903.0, -0.0536, 113.13
904.0, -0.0538, 113.18
905.0, -0.0536, 113.14
906.0, -0.0542, 113.30
907.0, -0.0539, 113.21
908.0, -0.0532, 113.02
909.0, -0.0537, 113.15
910.0, -0.0536, 113.13
911.0, -0.0536, 113.13
912.0, -0.0533, 113.06
913.0, -0.0534, 113.08
914.0, -0.0532, 113.04
915.0, -0.0534, 113.08
916.0, -0.0535, 113.10
917.0, -0.0537, 113.15
918.0, -0.0532, 113.03
919.0, -0.0527, 112.90
920.0, -0.0535, 113.11
921.0, -0.0532, 113.04
922.0, -0.0532, 113.02
923.0, -0.0537, 113.16
924.0, -0.0531, 113.01
925.0, -0.0526, 112.88
926.0, -0.0533, 113.05
927.0, -0.0534, 113.08
928.0, -0.0530, 112.99
929.0, -0.0533, 113.05
930.0, -0.0532, 113.02
931.0, -0.0531, 113.02
932.0, -0.0533, 113.04
933.0, -0.0532, 113.02
934.0, -0.0533, 113.06
935.0, -0.0533, 113.07
936.0, -0.0533, 113.05
937.0, -0.0534, 113.07
938.0, -0.0532, 113.04
939.0, -0.0536, 113.13
940.0, -0.0532, 113.04
941.0, -0.0535, 113.11
942.0, -0.0536, 113.15
943.0, -0.0534, 113.10
944.0, -0.0536, 113.14
945.0, -0.0535, 113.10
946.0, -0.0538, 113.19
947.0, -0.0539, 113.20
948.0, -0.0536, 113.12
949.0, -0.0534, 113.09
950.0, -0.0536, 113.13
951.0, -0.0536, 113.13
952.0, -0.0538, 113.18
953.0, -0.0540, 113.25
954.0, -0.0538, 113.19
955.0, -0.0543, 113.33
956.0, -0.0543, 113.32
957.0, -0.0538, 113.19
958.0, -0.0542, 113.28
959.0, -0.0547, 113.42
960.0, -0.0550, 113.51
961.0, -0.0550, 113.51
962.0, -0.0541, 113.27
963.0, -0.0548, 113.44
964.0, -0.0543, 113.31
965.0, -0.0544, 113.33
966.0, -0.0545, 113.36
967.0, -0.0542, 113.30
968.0, -0.0542, 113.30
969.0, -0.0543, 113.33
970.0, -0.0538, 113.18
971.0, -0.0536, 113.13
972.0, -0.0535, 113.11
973.0, -0.0534, 113.07
974.0, -0.0531, 113.01
975.0, -0.0534, 113.08
976.0, -0.0533, 113.07
977.0, -0.0533, 113.07
978.0, -0.0530, 112.97
979.0, -0.0527, 112.91
980.0, -0.0528, 112.93
981.0, -0.0525, 112.85
982.0, -0.0521, 112.74
983.0, -0.0520, 112.73
984.0, -0.0523, 112.79
985.0, -0.0516, 112.61
986.0, -0.0516, 112.61
987.0, -0.0517, 112.65
988.0, -0.0515, 112.59
989.0, -0.0520, 112.71
990.0, -0.0513, 112.54
991.0, -0.0512, 112.52
992.0, -0.0514, 112.55
993.0, -0.0510, 112.46
994.0, -0.0509, 112.44
995.0, -0.0512, 112.52
996.0, -0.0508, 112.40
997.0, -0.0503, 112.27
998.0, -0.0501, 112.23
999.0, -0.0500, 112.20
1000.0, -0.0504, 112.31
1001.0, -0.0501, 112.23
1002.0, -0.0505, 112.32
1003.0, -0.0501, 112.21
1004.0, -0.0495, 112.07
1005.0, -0.0495, 112.06
1006.0, -0.0487, 111.87
1007.0, -0.0497, 112.12
1008.0, -0.0496, 112.10
1009.0, -0.0497, 112.11
1010.0, -0.0493, 112.02
1011.0, -0.0493, 112.02
1012.0, -0.0491, 111.98
1013.0, -0.0485, 111.82
1014.0, -0.0491, 111.96
1015.0, -0.0494, 112.04
1016.0, -0.0497, 112.13
1017.0, -0.0492, 111.98
1018.0, -0.0497, 112.12
1019.0, -0.0483, 111.77
1020.0, -0.0487, 111.86
1021.0, -0.0482, 111.74
1022.0, -0.0491, 111.98
1023.0, -0.0486, 111.85
1024.0, -0.0489, 111.92
1025.0, -0.0494, 112.05
1026.0, -0.0485, 111.80
1027.0, -0.0478, 111.63
1028.0, -0.0479, 111.65
1029.0, -0.0485, 111.82
1030.0, -0.0487, 111.86
1031.0, -0.0480, 111.67
1032.0, -0.0478, 111.64
1033.0, -0.0485, 111.83
1034.0, -0.0479, 111.66
1035.0, -0.0480, 111.69
1036.0, -0.0483, 111.77
1037.0, -0.0483, 111.76
1038.0, -0.0478, 111.64
1039.0, -0.0481, 111.72
1040.0, -0.0484, 111.79
1041.0, -0.0478, 111.63
1042.0, -0.0476, 111.58
1043.0, -0.0483, 111.75
1044.0, -0.0484, 111.79
1045.0, -0.0475, 111.57
1046.0, -0.0471, 111.46
1047.0, -0.0481, 111.72
1048.0, -0.0483, 111.78
1049.0, -0.0471, 111.45
1050.0, -0.0469, 111.42
1051.0, -0.0482, 111.74
1052.0, -0.0481, 111.71
1053.0, -0.0473, 111.50
1054.0, -0.0471, 111.45
1055.0, -0.0477, 111.62
1056.0, -0.0467, 111.36
1057.0, -0.0464, 111.29
1058.0, -0.0469, 111.41
1059.0, -0.0477, 111.62
1060.0, -0.0473, 111.52
1061.0, -0.0483, 111.76
1062.0, -0.0471, 111.45
1063.0, -0.0481, 111.71
1064.0, -0.0472, 111.47
1065.0, -0.0475, 111.55
1066.0, -0.0481, 111.72
1067.0, -0.0470, 111.44
1068.0, -0.0474, 111.52
1069.0, -0.0483, 111.77
1070.0, -0.0468, 111.37
1071.0, -0.0476, 111.58
1072.0, -0.0484, 111.79
1073.0, -0.0467, 111.35
1074.0, -0.0470, 111.43
1075.0, -0.0479, 111.66
1076.0, -0.0481, 111.70
1077.0, -0.0462, 111.23
1078.0, -0.0478, 111.62
1079.0, -0.0479, 111.67
1080.0, -0.0485, 111.80
1081.0, -0.0466, 111.32
1082.0, -0.0487, 111.86
1083.0, -0.0479, 111.66
1084.0, -0.0484, 111.78
1085.0, -0.0456, 111.07
1086.0, -0.0474, 111.53
1087.0, -0.0480, 111.68
1088.0, -0.0485, 111.82
1089.0, -0.0472, 111.47
1090.0, -0.0456, 111.06
1091.0, -0.0480, 111.68
1092.0, -0.0477, 111.62
1093.0, -0.0483, 111.76
1094.0, -0.0473, 111.50
1095.0, -0.0451, 110.95
1096.0, -0.0472, 111.47
1097.0, -0.0488, 111.89
1098.0, -0.0481, 111.71
1099.0, -0.0486, 111.83
1100.0, -0.0444, 110.76
